time,velocity
5.0,0.1
5.5,0.2
6.0,0.4
6.5,0.7
7.0,1.0
7.5,1.4
8.0,1.9
8.5,2.3
9.0,2.8
9.5,3.2
10.0,3.5
10.5,3.8
11.0,4.0
11.5,4.1
12.0,4.0
12.5,3.8
13.0,3.5
13.5,3.1
14.0,2.7
14.5,2.3
15.0,2.0
15.5,1.7
16.0,1.5
16.5,1.3
17.0,1.1
17.5,1.0
18.0,0.9
18.5,0.8
19.0,0.7
19.5,0.6
20.0,0.5
20.5,0.4
21.0,0.3
21.5,0.25
22.0,0.2
22.5,0.18
23.0,0.15
23.5,0.12
24.0,0.1
24.5,0.08
25.0,0.06
25.5,0.05
26.0,0.04
26.5,0.03
27.0,0.02
27.5,0.015
28.0,0.01